# FULL TRUST WAVELENGTH GRID in micron
# 177 grid points from 0.09 to 2081 micron, including 0.1, 1, 10, 100, and 1000 micron
# The range between data point 35 and 133 contains a refined grid with 99 points.
     0.090062802
      0.10000000
      0.11103363
      0.12328467
      0.13688745
      0.15199111
      0.16876125
      0.18738174
      0.20805675
      0.23101297
      0.25650209
      0.28480359
      0.31622777
      0.35111917
      0.38986037
      0.43287613
      0.48063809
      0.53366992
      0.59255310
      0.65793322
      0.73052715
      0.81113083
      0.90062802
       1.0000000
       1.1103363
       1.2328467
       1.3688745
       1.5199111
       1.6876125
       1.8738174
       2.0805675
       2.3101297
       2.5650209
       2.8480359
       2.9082810
       2.9698005
       3.0326213
       3.0967710
       3.1622777
       3.2291700
       3.2974773
       3.3672296
       3.4384573
       3.5111917
       3.5854647
       3.6613088
       3.7387573
       3.8178440
       3.8986037
       3.9810717
       4.0652842
       4.1512780
       4.2390909
       4.3287613
       4.4203285
       4.5138327
       4.6093147
       4.7068166
       4.8063809
       4.9080513
       5.0118723
       5.1178896
       5.2261494
       5.3366992
       5.4495876
       5.5648639
       5.6825786
       5.8027834
       5.9255310
       6.0508750
       6.1788705
       6.3095734
       6.4430412
       6.5793322
       6.7185063
       6.8606243
       7.0057485
       7.1539427
       7.3052715
       7.4598015
       7.6176003
       7.7787370
       7.9432823
       8.1113083
       8.2828886
       8.4580983
       8.6370143
       8.8197149
       9.0062802
       9.1967920
       9.3913337
       9.5899906
       9.7928497
       10.000000
       10.211532
       10.427539
       10.648115
       10.873357
       11.103363
       11.338235
       11.578075
       11.822989
       12.073083
       12.328467
       12.589254
       12.855557
       13.127494
       13.405182
       13.688745
       13.978306
       14.273992
       14.575933
       14.884261
       15.199111
       15.520621
       15.848932
       16.184188
       16.526535
       16.876125
       17.233109
       17.597645
       17.969891
       18.350012
       18.738174
       19.134547
       19.539304
       19.952623
       20.374685
       20.805675
       21.245782
       21.695199
       22.154122
       22.622753
       23.101297
       25.650209
       28.480359
       31.622777
       35.111917
       38.986037
       43.287613
       48.063809
       53.366992
       59.255310
       65.793322
       73.052715
       81.113083
       90.062802
       100.00000
       111.03363
       123.28467
       136.88745
       151.99111
       168.76125
       187.38174
       208.05675
       231.01297
       256.50209
       284.80359
       316.22777
       351.11917
       389.86037
       432.87613
       480.63809
       533.66992
       592.55310
       657.93322
       730.52715
       811.13083
       900.62802
       1000.0000
       1110.3363
       1232.8467
       1368.8745
       1519.9111
       1687.6125
       1873.8174
       2080.5675
